fileID	LHAID	mzp	ma	mhp	mh2	mDM	tanBeta	gZ	Sigma[pb]
1	263400	450.0	300.0	300.0	300.0	100	0.4	0.8	0.0727683
65	263400	450.0	300.0	300.0	300.0	100	0.6	0.8	0.117967
3	263400	450.0	300.0	300.0	300.0	100	0.8	0.8	0.142127
4	263400	450.0	300.0	300.0	300.0	100	1.0	0.8	0.147317
5	263400	450.0	300.0	300.0	300.0	100	1.2	0.8	0.140927
6	263400	450.0	300.0	300.0	300.0	100	1.4	0.8	0.128687
7	263400	450.0	300.0	300.0	300.0	100	1.6	0.8	0.11502
121	263400	450.0	300.0	300.0	300.0	100	1.8	0.8	0.101373
122	263400	450.0	300.0	300.0	300.0	100	2.0	0.8	0.089551
153	263400	450.0	300.0	300.0	300.0	100	2.5	0.8	0.0658491
154	263400	450.0	300.0	300.0	300.0	100	3.0	0.8	0.0491139
185	263400	450.0	300.0	300.0	300.0	100	3.5	0.8	0.037775
186	263400	450.0	300.0	300.0	300.0	100	4.0	0.8	0.0297086
217	263400	450.0	300.0	300.0	300.0	100	4.5	0.8	0.0238934
218	263400	450.0	300.0	300.0	300.0	100	5.0	0.8	0.0194782
249	263400	450.0	300.0	300.0	300.0	100	7.0	0.8	0.0099242
250	263400	450.0	300.0	300.0	300.0	100	10.0	0.8	0.00461883
10	263400	500.0	300.0	300.0	300.0	100	0.4	0.8	0.17808
66	263400	500.0	300.0	300.0	300.0	100	0.6	0.8	0.28856
12	263400	500.0	300.0	300.0	300.0	100	0.8	0.8	0.34781
282	263400	500.0	300.0	300.0	300.0	100	1.0	0.8	0.35912
14	263400	500.0	300.0	300.0	300.0	100	1.2	0.8	0.34266
15	263400	500.0	300.0	300.0	300.0	100	1.4	0.8	0.31321
16	263400	500.0	300.0	300.0	300.0	100	1.6	0.8	0.2796
17	263400	500.0	300.0	300.0	300.0	100	1.8	0.8	0.24729
18	263400	500.0	300.0	300.0	300.0	100	2.0	0.8	0.21836
155	263400	500.0	300.0	300.0	300.0	100	2.5	0.8	0.15972
156	263400	500.0	300.0	300.0	300.0	100	3.0	0.8	0.11948
187	263400	500.0	300.0	300.0	300.0	100	3.5	0.8	0.091729
188	263400	500.0	300.0	300.0	300.0	100	4.0	0.8	0.072254
219	263400	500.0	300.0	300.0	300.0	100	4.5	0.8	0.057909
220	263400	500.0	300.0	300.0	300.0	100	5.0	0.8	0.047319
251	263400	500.0	300.0	300.0	300.0	100	7.0	0.8	0.024102
252	263400	500.0	300.0	300.0	300.0	100	10.0	0.8	0.011185
19	263400	550.0	300.0	300.0	300.0	100	0.4	0.8	0.22466
20	263400	550.0	300.0	300.0	300.0	100	0.6	0.8	0.36251
21	263400	550.0	300.0	300.0	300.0	100	0.8	0.8	0.43618
283	263400	550.0	300.0	300.0	300.0	100	1.0	0.8	0.45163
23	263400	550.0	300.0	300.0	300.0	100	1.2	0.8	0.43145
24	263400	550.0	300.0	300.0	300.0	100	1.4	0.8	0.3941
25	263400	550.0	300.0	300.0	300.0	100	1.6	0.8	0.35263
26	263400	550.0	300.0	300.0	300.0	100	1.8	0.8	0.31184
27	263400	550.0	300.0	300.0	300.0	100	2.0	0.8	0.2752
157	263400	550.0	300.0	300.0	300.0	100	2.5	0.8	0.20186
158	263400	550.0	300.0	300.0	300.0	100	3.0	0.8	0.15107
189	263400	550.0	300.0	300.0	300.0	100	3.5	0.8	0.11619
190	263400	550.0	300.0	300.0	300.0	100	4.0	0.8	0.091096
221	263400	550.0	300.0	300.0	300.0	100	4.5	0.8	0.073412
222	263400	550.0	300.0	300.0	300.0	100	5.0	0.8	0.059838
253	263400	550.0	300.0	300.0	300.0	100	7.0	0.8	0.030587
254	263400	550.0	300.0	300.0	300.0	100	10.0	0.8	0.014167
28	263400	2050.0	300.0	300.0	300.0	100	0.4	0.8	0.003636
68	263400	2050.0	300.0	300.0	300.0	100	0.6	0.8	0.0059388
30	263400	2050.0	300.0	300.0	300.0	100	0.8	0.8	0.0072673
284	263400	2050.0	300.0	300.0	300.0	100	1.0	0.8	0.0076131
32	263400	2050.0	300.0	300.0	300.0	100	1.2	0.8	0.0073375
33	263400	2050.0	300.0	300.0	300.0	100	1.4	0.8	0.0067943
34	263400	2050.0	300.0	300.0	300.0	100	1.6	0.8	0.0061098
127	263400	2050.0	300.0	300.0	300.0	100	1.8	0.8	0.0054483
128	263400	2050.0	300.0	300.0	300.0	100	2.0	0.8	0.0048324
159	263400	2050.0	300.0	300.0	300.0	100	2.5	0.8	0.0035729
160	263400	2050.0	300.0	300.0	300.0	100	3.0	0.8	0.0026956
191	263400	2050.0	300.0	300.0	300.0	100	3.5	0.8	0.0020776
192	263400	2050.0	300.0	300.0	300.0	100	4.0	0.8	0.0016363
223	263400	2050.0	300.0	300.0	300.0	100	4.5	0.8	0.0013198
224	263400	2050.0	300.0	300.0	300.0	100	5.0	0.8	0.0010789
255	263400	2050.0	300.0	300.0	300.0	100	7.0	0.8	0.00055222
256	263400	2050.0	300.0	300.0	300.0	100	10.0	0.8	0.00025743
37	263400	2100.0	300.0	300.0	300.0	100	0.4	0.8	0.0032219
38	263400	2100.0	300.0	300.0	300.0	100	0.6	0.8	0.0052595
39	263400	2100.0	300.0	300.0	300.0	100	0.8	0.8	0.0064269
40	263400	2100.0	300.0	300.0	300.0	100	1.0	0.8	0.0067556
41	263400	2100.0	300.0	300.0	300.0	100	1.2	0.8	0.0065042
42	263400	2100.0	300.0	300.0	300.0	100	1.4	0.8	0.0060174
43	263400	2100.0	300.0	300.0	300.0	100	1.6	0.8	0.0054262
129	263400	2100.0	300.0	300.0	300.0	100	1.8	0.8	0.0048347
130	263400	2100.0	300.0	300.0	300.0	100	2.0	0.8	0.0042766
161	263400	2100.0	300.0	300.0	300.0	100	2.5	0.8	0.003166
162	263400	2100.0	300.0	300.0	300.0	100	3.0	0.8	0.0023922
193	263400	2100.0	300.0	300.0	300.0	100	3.5	0.8	0.0018382
194	263400	2100.0	300.0	300.0	300.0	100	4.0	0.8	0.0014556
225	263400	2100.0	300.0	300.0	300.0	100	4.5	0.8	0.0011661
226	263400	2100.0	300.0	300.0	300.0	100	5.0	0.8	0.00095595
257	263400	2100.0	300.0	300.0	300.0	100	7.0	0.8	0.00049024
258	263400	2100.0	300.0	300.0	300.0	100	10.0	0.8	0.00022796
46	263400	2150.0	300.0	300.0	300.0	100	0.4	0.8	0.0028608
47	263400	2150.0	300.0	300.0	300.0	100	0.6	0.8	0.004678
48	263400	2150.0	300.0	300.0	300.0	100	0.8	0.8	0.0057032
49	263400	2150.0	300.0	300.0	300.0	100	1.0	0.8	0.0059812
50	263400	2150.0	300.0	300.0	300.0	100	1.2	0.8	0.0057778
51	263400	2150.0	300.0	300.0	300.0	100	1.4	0.8	0.0053411
52	263400	2150.0	300.0	300.0	300.0	100	1.6	0.8	0.0048126
53	263400	2150.0	300.0	300.0	300.0	100	1.8	0.8	0.0042788
132	263400	2150.0	300.0	300.0	300.0	100	2.0	0.8	0.0038028
163	263400	2150.0	300.0	300.0	300.0	100	2.5	0.8	0.0028096
164	263400	2150.0	300.0	300.0	300.0	100	3.0	0.8	0.0021168
195	263400	2150.0	300.0	300.0	300.0	100	3.5	0.8	0.0016345
196	263400	2150.0	300.0	300.0	300.0	100	4.0	0.8	0.001289
227	263400	2150.0	300.0	300.0	300.0	100	4.5	0.8	0.0010346
228	263400	2150.0	300.0	300.0	300.0	100	5.0	0.8	0.00084871
259	263400	2150.0	300.0	300.0	300.0	100	7.0	0.8	0.00043533
260	263400	2150.0	300.0	300.0	300.0	100	10.0	0.8	0.00020289
55	263400	2200.0	300.0	300.0	300.0	100	0.4	0.8	0.0025341
71	263400	2200.0	300.0	300.0	300.0	100	0.6	0.8	0.00415
81	263400	2200.0	300.0	300.0	300.0	100	0.8	0.8	0.0050592
287	263400	2200.0	300.0	300.0	300.0	100	1.0	0.8	0.005322
91	263400	2200.0	300.0	300.0	300.0	100	1.2	0.8	0.0051314
101	263400	2200.0	300.0	300.0	300.0	100	1.4	0.8	0.0047376
102	263400	2200.0	300.0	300.0	300.0	100	1.6	0.8	0.0042681
133	263400	2200.0	300.0	300.0	300.0	100	1.8	0.8	0.0038092
134	263400	2200.0	300.0	300.0	300.0	100	2.0	0.8	0.0033764
165	263400	2200.0	300.0	300.0	300.0	100	2.5	0.8	0.0024967
166	263400	2200.0	300.0	300.0	300.0	100	3.0	0.8	0.001884
197	263400	2200.0	300.0	300.0	300.0	100	3.5	0.8	0.001454
198	263400	2200.0	300.0	300.0	300.0	100	4.0	0.8	0.0011444
229	263400	2200.0	300.0	300.0	300.0	100	4.5	0.8	0.00091968
230	263400	2200.0	300.0	300.0	300.0	100	5.0	0.8	0.00075398
261	263400	2200.0	300.0	300.0	300.0	100	7.0	0.8	0.00038552
262	263400	2200.0	300.0	300.0	300.0	100	10.0	0.8	0.00018035
56	263400	2250.0	300.0	300.0	300.0	100	0.4	0.8	0.0022547
72	263400	2250.0	300.0	300.0	300.0	100	0.6	0.8	0.0036933
82	263400	2250.0	300.0	300.0	300.0	100	0.8	0.8	0.0045044
288	263400	2250.0	300.0	300.0	300.0	100	1.0	0.8	0.0047392
92	263400	2250.0	300.0	300.0	300.0	100	1.2	0.8	0.0045579
103	263400	2250.0	300.0	300.0	300.0	100	1.4	0.8	0.0042203
104	263400	2250.0	300.0	300.0	300.0	100	1.6	0.8	0.0038001
135	263400	2250.0	300.0	300.0	300.0	100	1.8	0.8	0.003385
136	263400	2250.0	300.0	300.0	300.0	100	2.0	0.8	0.0030004
167	263400	2250.0	300.0	300.0	300.0	100	2.5	0.8	0.0022243
168	263400	2250.0	300.0	300.0	300.0	100	3.0	0.8	0.0016755
199	263400	2250.0	300.0	300.0	300.0	100	3.5	0.8	0.0012947
200	263400	2250.0	300.0	300.0	300.0	100	4.0	0.8	0.0010194
231	263400	2250.0	300.0	300.0	300.0	100	4.5	0.8	0.00081912
232	263400	2250.0	300.0	300.0	300.0	100	5.0	0.8	0.00067063
263	263400	2250.0	300.0	300.0	300.0	100	7.0	0.8	0.00034381
264	263400	2250.0	300.0	300.0	300.0	100	10.0	0.8	0.00016043
57	263400	2300.0	300.0	300.0	300.0	100	0.4	0.8	0.0020151
73	263400	2300.0	300.0	300.0	300.0	100	0.6	0.8	0.0032908
83	263400	2300.0	300.0	300.0	300.0	100	0.8	0.8	0.0040264
289	263400	2300.0	300.0	300.0	300.0	100	1.0	0.8	0.0042121
93	263400	2300.0	300.0	300.0	300.0	100	1.2	0.8	0.004068
105	263400	2300.0	300.0	300.0	300.0	100	1.4	0.8	0.003756
106	263400	2300.0	300.0	300.0	300.0	100	1.6	0.8	0.0033854
137	263400	2300.0	300.0	300.0	300.0	100	1.8	0.8	0.0030217
138	263400	2300.0	300.0	300.0	300.0	100	2.0	0.8	0.0026718
169	263400	2300.0	300.0	300.0	300.0	100	2.5	0.8	0.0019785
170	263400	2300.0	300.0	300.0	300.0	100	3.0	0.8	0.0014912
201	263400	2300.0	300.0	300.0	300.0	100	3.5	0.8	0.0011503
202	263400	2300.0	300.0	300.0	300.0	100	4.0	0.8	0.00090737
233	263400	2300.0	300.0	300.0	300.0	100	4.5	0.8	0.00072933
234	263400	2300.0	300.0	300.0	300.0	100	5.0	0.8	0.00059837
265	263400	2300.0	300.0	300.0	300.0	100	7.0	0.8	0.00030592
266	263400	2300.0	300.0	300.0	300.0	100	10.0	0.8	0.00014214
58	263400	2450.0	300.0	300.0	300.0	100	0.4	0.8	0.0014248
74	263400	2450.0	300.0	300.0	300.0	100	0.6	0.8	0.0023378
84	263400	2450.0	300.0	300.0	300.0	100	0.8	0.8	0.0028567
290	263400	2450.0	300.0	300.0	300.0	100	1.0	0.8	0.0030025
94	263400	2450.0	300.0	300.0	300.0	100	1.2	0.8	0.0028914
107	263400	2450.0	300.0	300.0	300.0	100	1.4	0.8	0.0026721
108	263400	2450.0	300.0	300.0	300.0	100	1.6	0.8	0.0024112
139	263400	2450.0	300.0	300.0	300.0	100	1.8	0.8	0.0021457
140	263400	2450.0	300.0	300.0	300.0	100	2.0	0.8	0.0019059
171	263400	2450.0	300.0	300.0	300.0	100	2.5	0.8	0.0014079
172	263400	2450.0	300.0	300.0	300.0	100	3.0	0.8	0.0010615
203	263400	2450.0	300.0	300.0	300.0	100	3.5	0.8	0.00081808
204	263400	2450.0	300.0	300.0	300.0	100	4.0	0.8	0.00064608
235	263400	2450.0	300.0	300.0	300.0	100	4.5	0.8	0.00051946
236	263400	2450.0	300.0	300.0	300.0	100	5.0	0.8	0.0004249
267	263400	2450.0	300.0	300.0	300.0	100	7.0	0.8	0.00021786
268	263400	2450.0	300.0	300.0	300.0	100	10.0	0.8	0.00010164
59	263400	2700.0	300.0	300.0	300.0	100	0.4	0.8	0.00082508
75	263400	2700.0	300.0	300.0	300.0	100	0.6	0.8	0.0013449
85	263400	2700.0	300.0	300.0	300.0	100	0.8	0.8	0.0016479
291	263400	2700.0	300.0	300.0	300.0	100	1.0	0.8	0.0017272
95	263400	2700.0	300.0	300.0	300.0	100	1.2	0.8	0.0016702
109	263400	2700.0	300.0	300.0	300.0	100	1.4	0.8	0.0015411
110	263400	2700.0	300.0	300.0	300.0	100	1.6	0.8	0.0013875
141	263400	2700.0	300.0	300.0	300.0	100	1.8	0.8	0.0012378
142	263400	2700.0	300.0	300.0	300.0	100	2.0	0.8	0.0011023
173	263400	2700.0	300.0	300.0	300.0	100	2.5	0.8	0.00081333
174	263400	2700.0	300.0	300.0	300.0	100	3.0	0.8	0.00061319
205	263400	2700.0	300.0	300.0	300.0	100	3.5	0.8	0.00047282
206	263400	2700.0	300.0	300.0	300.0	100	4.0	0.8	0.00037316
237	263400	2700.0	300.0	300.0	300.0	100	4.5	0.8	0.0003006
238	263400	2700.0	300.0	300.0	300.0	100	5.0	0.8	0.00024612
269	263400	2700.0	300.0	300.0	300.0	100	7.0	0.8	0.00012606
270	263400	2700.0	300.0	300.0	300.0	100	10.0	0.8	5.8705e-05
60	263400	2750.0	300.0	300.0	300.0	100	0.4	0.8	0.00074072
76	263400	2750.0	300.0	300.0	300.0	100	0.6	0.8	0.0012127
86	263400	2750.0	300.0	300.0	300.0	100	0.8	0.8	0.0014818
292	263400	2750.0	300.0	300.0	300.0	100	1.0	0.8	0.0015517
96	263400	2750.0	300.0	300.0	300.0	100	1.2	0.8	0.0015014
111	263400	2750.0	300.0	300.0	300.0	100	1.4	0.8	0.0013902
112	263400	2750.0	300.0	300.0	300.0	100	1.6	0.8	0.0012512
143	263400	2750.0	300.0	300.0	300.0	100	1.8	0.8	0.0011136
144	263400	2750.0	300.0	300.0	300.0	100	2.0	0.8	0.00098863
175	263400	2750.0	300.0	300.0	300.0	100	2.5	0.8	0.00073238
176	263400	2750.0	300.0	300.0	300.0	100	3.0	0.8	0.00055075
207	263400	2750.0	300.0	300.0	300.0	100	3.5	0.8	0.00042554
208	263400	2750.0	300.0	300.0	300.0	100	4.0	0.8	0.00033659
239	263400	2750.0	300.0	300.0	300.0	100	4.5	0.8	0.00026978
240	263400	2750.0	300.0	300.0	300.0	100	5.0	0.8	0.00022086
271	263400	2750.0	300.0	300.0	300.0	100	7.0	0.8	0.00011314
272	263400	2750.0	300.0	300.0	300.0	100	10.0	0.8	5.2804e-05
61	263400	2800.0	300.0	300.0	300.0	100	0.4	0.8	0.00066522
77	263400	2800.0	300.0	300.0	300.0	100	0.6	0.8	0.0010892
87	263400	2800.0	300.0	300.0	300.0	100	0.8	0.8	0.0013316
293	263400	2800.0	300.0	300.0	300.0	100	1.0	0.8	0.0013982
97	263400	2800.0	300.0	300.0	300.0	100	1.2	0.8	0.0013502
113	263400	2800.0	300.0	300.0	300.0	100	1.4	0.8	0.0012489
114	263400	2800.0	300.0	300.0	300.0	100	1.6	0.8	0.0011258
145	263400	2800.0	300.0	300.0	300.0	100	1.8	0.8	0.0010003
146	263400	2800.0	300.0	300.0	300.0	100	2.0	0.8	0.00088815
177	263400	2800.0	300.0	300.0	300.0	100	2.5	0.8	0.00065634
178	263400	2800.0	300.0	300.0	300.0	100	3.0	0.8	0.00049597
209	263400	2800.0	300.0	300.0	300.0	100	3.5	0.8	0.00038253
210	263400	2800.0	300.0	300.0	300.0	100	4.0	0.8	0.00030145
241	263400	2800.0	300.0	300.0	300.0	100	4.5	0.8	0.00024304
242	263400	2800.0	300.0	300.0	300.0	100	5.0	0.8	0.00019873
273	263400	2800.0	300.0	300.0	300.0	100	7.0	0.8	0.0001015
274	263400	2800.0	300.0	300.0	300.0	100	10.0	0.8	4.7318e-05
62	263400	2850.0	300.0	300.0	300.0	100	0.4	0.8	0.00059983
78	263400	2850.0	300.0	300.0	300.0	100	0.6	0.8	0.00097919
88	263400	2850.0	300.0	300.0	300.0	100	0.8	0.8	0.0011976
294	263400	2850.0	300.0	300.0	300.0	100	1.0	0.8	0.0012587
98	263400	2850.0	300.0	300.0	300.0	100	1.2	0.8	0.0012131
115	263400	2850.0	300.0	300.0	300.0	100	1.4	0.8	0.0011213
116	263400	2850.0	300.0	300.0	300.0	100	1.6	0.8	0.0010127
147	263400	2850.0	300.0	300.0	300.0	100	1.8	0.8	0.0008996
148	263400	2850.0	300.0	300.0	300.0	100	2.0	0.8	0.00079838
179	263400	2850.0	300.0	300.0	300.0	100	2.5	0.8	0.00059214
180	263400	2850.0	300.0	300.0	300.0	100	3.0	0.8	0.00044607
211	263400	2850.0	300.0	300.0	300.0	100	3.5	0.8	0.00034403
212	263400	2850.0	300.0	300.0	300.0	100	4.0	0.8	0.00027062
243	263400	2850.0	300.0	300.0	300.0	100	4.5	0.8	0.0002188
244	263400	2850.0	300.0	300.0	300.0	100	5.0	0.8	0.00017837
275	263400	2850.0	300.0	300.0	300.0	100	7.0	0.8	9.1653e-05
276	263400	2850.0	300.0	300.0	300.0	100	10.0	0.8	4.2595e-05
63	263400	2900.0	300.0	300.0	300.0	100	0.4	0.8	0.00053746
79	263400	2900.0	300.0	300.0	300.0	100	0.6	0.8	0.0008824
89	263400	2900.0	300.0	300.0	300.0	100	0.8	0.8	0.0010796
295	263400	2900.0	300.0	300.0	300.0	100	1.0	0.8	0.0011307
99	263400	2900.0	300.0	300.0	300.0	100	1.2	0.8	0.0010913
117	263400	2900.0	300.0	300.0	300.0	100	1.4	0.8	0.0010123
118	263400	2900.0	300.0	300.0	300.0	100	1.6	0.8	0.00090838
149	263400	2900.0	300.0	300.0	300.0	100	1.8	0.8	0.00081147
150	263400	2900.0	300.0	300.0	300.0	100	2.0	0.8	0.00071891
181	263400	2900.0	300.0	300.0	300.0	100	2.5	0.8	0.00053226
182	263400	2900.0	300.0	300.0	300.0	100	3.0	0.8	0.00040203
213	263400	2900.0	300.0	300.0	300.0	100	3.5	0.8	0.00030955
214	263400	2900.0	300.0	300.0	300.0	100	4.0	0.8	0.00024474
245	263400	2900.0	300.0	300.0	300.0	100	4.5	0.8	0.00019633
246	263400	2900.0	300.0	300.0	300.0	100	5.0	0.8	0.00016111
277	263400	2900.0	300.0	300.0	300.0	100	7.0	0.8	8.231e-05
278	263400	2900.0	300.0	300.0	300.0	100	10.0	0.8	3.8433e-05
64	263400	2950.0	300.0	300.0	300.0	100	0.4	0.8	0.00048589
80	263400	2950.0	300.0	300.0	300.0	100	0.6	0.8	0.00079507
90	263400	2950.0	300.0	300.0	300.0	100	0.8	0.8	0.00097206
296	263400	2950.0	300.0	300.0	300.0	100	1.0	0.8	0.0010172
100	263400	2950.0	300.0	300.0	300.0	100	1.2	0.8	0.00098371
119	263400	2950.0	300.0	300.0	300.0	100	1.4	0.8	0.00091157
120	263400	2950.0	300.0	300.0	300.0	100	1.6	0.8	0.00082001
151	263400	2950.0	300.0	300.0	300.0	100	1.8	0.8	0.00073322
152	263400	2950.0	300.0	300.0	300.0	100	2.0	0.8	0.00064814
183	263400	2950.0	300.0	300.0	300.0	100	2.5	0.8	0.00048007
184	263400	2950.0	300.0	300.0	300.0	100	3.0	0.8	0.00036161
215	263400	2950.0	300.0	300.0	300.0	100	3.5	0.8	0.00027918
216	263400	2950.0	300.0	300.0	300.0	100	4.0	0.8	0.00022057
247	263400	2950.0	300.0	300.0	300.0	100	4.5	0.8	0.00017679
248	263400	2950.0	300.0	300.0	300.0	100	5.0	0.8	0.00014478
279	263400	2950.0	300.0	300.0	300.0	100	7.0	0.8	7.4167e-05
280	263400	2950.0	300.0	300.0	300.0	100	10.0	0.8	3.4567e-05
2	263400	3300.0	300.0	300.0	300.0	100	1.4	0.8	0.00044624
3	263400	3300.0	300.0	300.0	300.0	100	1.6	0.8	0.0004015
4	263400	3300.0	300.0	300.0	300.0	100	1.8	0.8	0.00035962
5	263400	3300.0	300.0	300.0	300.0	100	2.0	0.8	0.0003181
6	263400	3300.0	300.0	300.0	300.0	100	2.5	0.8	0.00023538
7	263400	3300.0	300.0	300.0	300.0	100	3.0	0.8	0.00017757
8	263400	3300.0	300.0	300.0	300.0	100	3.5	0.8	0.00013728
9	263400	3300.0	300.0	300.0	300.0	100	4.0	0.8	0.00010808
10	263400	3300.0	300.0	300.0	300.0	100	4.5	0.8	8.6955e-05
11	263400	3300.0	300.0	300.0	300.0	100	5.0	0.8	7.1076e-05
12	263400	3300.0	300.0	300.0	300.0	100	7.0	0.8	3.6539e-05
13	263400	3300.0	300.0	300.0	300.0	100	10.0	0.8	1.6991e-05
14	263400	3700.0	300.0	300.0	300.0	100	1.4	0.8	0.00020419
15	263400	3700.0	300.0	300.0	300.0	100	1.6	0.8	0.00018444
16	263400	3700.0	300.0	300.0	300.0	100	1.8	0.8	0.0001638
17	263400	3700.0	300.0	300.0	300.0	100	2.0	0.8	0.00014559
18	263400	3700.0	300.0	300.0	300.0	100	2.5	0.8	0.00010815
19	263400	3700.0	300.0	300.0	300.0	100	3.0	0.8	8.1506e-05
20	263400	3700.0	300.0	300.0	300.0	100	3.5	0.8	6.2849e-05
21	263400	3700.0	300.0	300.0	300.0	100	4.0	0.8	4.952e-05
22	263400	3700.0	300.0	300.0	300.0	100	4.5	0.8	3.9747e-05
23	263400	3700.0	300.0	300.0	300.0	100	5.0	0.8	3.2699e-05
24	263400	3700.0	300.0	300.0	300.0	100	7.0	0.8	1.6659e-05
25	263400	3700.0	300.0	300.0	300.0	100	10.0	0.8	7.7768e-06
26	263400	4000.0	300.0	300.0	300.0	100	1.4	0.8	0.00011623
27	263400	4000.0	300.0	300.0	300.0	100	1.6	0.8	0.00010465
28	263400	4000.0	300.0	300.0	300.0	100	1.8	0.8	9.3453e-05
29	263400	4000.0	300.0	300.0	300.0	100	2.0	0.8	8.2431e-05
30	263400	4000.0	300.0	300.0	300.0	100	2.5	0.8	6.1203e-05
31	263400	4000.0	300.0	300.0	300.0	100	3.0	0.8	4.6129e-05
32	263400	4000.0	300.0	300.0	300.0	100	3.5	0.8	3.5617e-05
33	263400	4000.0	300.0	300.0	300.0	100	4.0	0.8	2.8162e-05
34	263400	4000.0	300.0	300.0	300.0	100	4.5	0.8	2.2626e-05
35	263400	4000.0	300.0	300.0	300.0	100	5.0	0.8	1.8552e-05
36	263400	4000.0	300.0	300.0	300.0	100	7.0	0.8	9.4791e-06
37	263400	4000.0	300.0	300.0	300.0	100	10.0	0.8	4.4317e-06
